t(s),N2(T),N(T),H(T),NH3(T),NH2(T),NH(T),RU(T),N2(S),N(S),H(S),NH3(S),NH2(S),NH(S),RU(S)
1.00000000e-08,2.37891967e-08,1.25150590e-01,5.34935321e-01,5.56977672e-08,2.25805728e-07,2.12745619e-03,3.37786328e-01,2.07153350e-09,2.21235745e-01,4.15554344e-02,1.40738024e-10,1.22999517e-06,5.02733724e-05,7.37157245e-01
1.45000000e-08,2.76325208e-08,1.60112749e-01,5.26168714e-01,8.65572649e-08,3.30109142e-07,2.90958452e-03,3.10808509e-01,4.28096489e-09,2.98398370e-01,5.33121578e-02,5.67610597e-10,3.53271176e-06,9.89409178e-05,6.48186924e-01
1.90000000e-08,3.22802135e-08,1.92266853e-01,5.09143793e-01,1.09829809e-07,4.12051400e-07,3.56184897e-03,2.95026952e-01,7.25919643e-09,3.65133976e-01,6.24481070e-02,1.58273804e-09,7.61211560e-06,1.60646990e-04,5.72249579e-01
2.35000000e-08,3.77453229e-08,2.22368889e-01,4.90922751e-01,1.29298928e-07,4.83079749e-07,4.14747064e-03,2.82560240e-01,1.10016903e-08,4.23105064e-01,6.96065022e-02,3.59634172e-09,1.39623327e-05,2.34191756e-04,5.07040196e-01
2.80000000e-08,4.40198932e-08,2.50708093e-01,4.73146494e-01,1.46833450e-07,5.48198325e-07,4.69116538e-03,2.71453509e-01,1.55112438e-08,4.73648799e-01,7.52528353e-02,7.17316209e-09,2.31209655e-05,3.18843224e-04,4.50756309e-01
3.25000000e-08,5.10803058e-08,2.77451858e-01,4.56174594e-01,1.63119235e-07,6.09262444e-07,5.20254497e-03,2.61170180e-01,2.07963418e-08,5.17855933e-01,7.97306224e-02,1.30721544e-08,3.56900823e-05,4.14197047e-04,4.01963454e-01
3.70000000e-08,5.88953577e-08,3.02728121e-01,4.40056027e-01,1.78410009e-07,6.66992714e-07,5.68589006e-03,2.51529059e-01,2.68693888e-08,5.56624961e-01,8.32963194e-02,2.23042965e-08,5.23543988e-05,5.20071535e-04,3.59506175e-01
4.15000000e-08,6.74351436e-08,3.26645762e-01,4.24760540e-01,1.92848530e-07,7.21811746e-07,6.14400102e-03,2.42448715e-01,3.37434130e-08,5.90701799e-01,8.61429290e-02,3.61703573e-08,7.38669897e-05,6.36388490e-04,3.22444876e-01
4.60000000e-08,7.66655153e-08,3.49302304e-01,4.10241230e-01,2.06420515e-07,7.73760583e-07,6.57812031e-03,2.33877290e-01,4.14336616e-08,6.20709587e-01,8.84162275e-02,5.64060960e-08,1.01120211e-04,7.63166339e-04,2.90009732e-01
5.05000000e-08,8.65579901e-08,3.70784609e-01,3.96447669e-01,2.19231051e-07,8.23140972e-07,6.99015616e-03,2.25776438e-01,4.99466910e-08,6.47171999e-01,9.02268114e-02,8.50287071e-08,1.34967896e-04,9.00314307e-04,2.61565703e-01
5.50000000e-08,9.70839959e-08,3.91172002e-01,3.83333079e-01,2.31283413e-07,8.70010399e-07,7.38122648e-03,2.18112494e-01,5.92864568e-08,6.70531591e-01,9.16582242e-02,1.24663663e-07,1.76409566e-04,1.04769267e-03,2.36585829e-01
5.95000000e-08,1.08215833e-07,4.10536503e-01,3.70854018e-01,2.42609220e-07,9.14488928e-07,7.75249243e-03,2.10855722e-01,6.94432513e-08,6.91164461e-01,9.27736260e-02,1.78303313e-07,2.26356069e-04,1.20489696e-03,2.14630342e-01
6.40000000e-08,1.19926969e-07,4.28943857e-01,3.58970651e-01,2.53232585e-07,9.56672918e-07,8.10498749e-03,2.03979174e-01,8.03907085e-08,7.09391950e-01,9.36201645e-02,2.49328862e-07,2.85702114e-04,1.37132982e-03,1.95330454e-01
6.85000000e-08,1.32189993e-07,4.46452010e-01,3.47647854e-01,2.63174369e-07,9.96643933e-07,8.43960697e-03,1.97459138e-01,9.20783886e-08,7.25486169e-01,9.42330270e-02,3.41262452e-07,3.54971217e-04,1.54577967e-03,1.78379550e-01
7.30000000e-08,1.44983619e-07,4.63121358e-01,3.36848771e-01,2.72459452e-07,1.03449715e-06,8.75732749e-03,1.91271092e-01,1.04442125e-07,7.39699642e-01,9.46392223e-02,4.57523579e-07,4.34548601e-04,1.72694171e-03,1.63499013e-01
7.75000000e-08,1.58280674e-07,4.78998977e-01,3.26544771e-01,2.81105689e-07,1.07029787e-06,9.05887252e-03,1.85395870e-01,1.17369052e-07,7.52231444e-01,9.48576560e-02,6.00785307e-07,5.24163263e-04,1.91264588e-03,1.50473303e-01
8.20000000e-08,1.72057053e-07,4.94131501e-01,3.16707476e-01,2.89132994e-07,1.10411700e-06,9.34498451e-03,1.79814473e-01,1.30723691e-07,7.63266961e-01,9.49035935e-02,7.72554041e-07,6.22986351e-04,2.10037112e-03,1.39105115e-01
8.65000000e-08,1.86288960e-07,5.08562638e-01,3.07310238e-01,2.96560913e-07,1.13602216e-06,9.61636351e-03,1.74509143e-01,1.44337406e-07,7.72974221e-01,9.47900352e-02,9.72377837e-07,7.29448671e-04,2.28713276e-03,1.29217976e-01
9.10000000e-08,2.00952396e-07,5.22332051e-01,2.98328857e-01,3.03408094e-07,1.16607540e-06,9.87364709e-03,1.69463775e-01,1.58014934e-07,7.81501986e-01,9.45290577e-02,1.19730124e-06,8.41216994e-04,2.46961567e-03,1.20656699e-01
9.55000000e-08,2.16023754e-07,5.35476466e-01,2.89740926e-01,3.09692879e-07,1.19433581e-06,1.01174316e-02,1.64663457e-01,1.71551256e-07,7.88985163e-01,9.41326977e-02,1.44210348e-06,9.55458137e-04,2.64451163e-03,1.13280486e-01
1.00000000e-07,2.31479015e-07,5.48029988e-01,2.81525626e-01,3.15433494e-07,1.22086000e-06,1.03482774e-02,1.60094341e-01,1.84730977e-07,7.95547574e-01,9.36146679e-02,1.69864993e-06,1.06877509e-03,2.80856016e-03,1.06958469e-01
1.45000000e-07,4.01848808e-07,6.47071260e-01,2.16196036e-01,3.46918787e-07,1.40201568e-06,1.20491189e-02,1.24681434e-01,2.72743435e-07,8.30601263e-01,8.51085111e-02,3.30721855e-06,1.69155649e-03,3.61020954e-03,7.89848101e-02
1.90000000e-07,5.83966891e-07,7.11508541e-01,1.73125117e-01,3.44225606e-07,1.46438475e-06,1.29122313e-02,1.02451718e-01,3.00436681e-07,8.43524012e-01,7.73404914e-02,3.07086464e-06,1.61809691e-03,3.55829094e-03,7.39556681e-02
2.35000000e-07,7.55293253e-07,7.53842706e-01,1.44550158e-01,3.24751029e-07,1.45432367e-06,1.32447224e-02,8.83598789e-02,3.11184562e-07,8.50149469e-01,7.24047568e-02,2.69345198e-06,1.48608550e-03,3.42340437e-03,7.25332094e-02
2.80000000e-07,8.99682758e-07,7.81582923e-01,1.25696878e-01,3.01060125e-07,1.41108173e-06,1.32832668e-02,7.94343214e-02,3.16856351e-07,8.53800615e-01,6.96074153e-02,2.47399894e-06,1.40580132e-03,3.33675669e-03,7.18465506e-02
3.25000000e-07,1.01159181e-06,7.99605194e-01,1.13390243e-01,2.80991022e-07,1.36057935e-06,1.31933801e-02,7.38085297e-02,3.20147856e-07,8.55659043e-01,6.82506542e-02,2.38042966e-06,1.37077393e-03,3.29850466e-03,7.14182537e-02
3.70000000e-07,1.09189790e-06,8.11176831e-01,1.05464768e-01,2.65894865e-07,1.31693410e-06,1.30735079e-02,7.02822191e-02,3.21986315e-07,8.56358512e-01,6.78496601e-02,2.37018077e-06,1.36695838e-03,3.29525261e-03,7.11268545e-02
4.15000000e-07,1.14692052e-06,8.18532741e-01,1.00422178e-01,2.55928237e-07,1.28432756e-06,1.29689619e-02,6.80734321e-02,3.22866437e-07,8.56302000e-01,6.80724932e-02,2.41453955e-06,1.38375986e-03,3.31533179e-03,7.09236078e-02
4.60000000e-07,1.18334326e-06,8.23153943e-01,9.72596504e-02,2.50036792e-07,1.26231142e-06,1.28934963e-02,6.66902150e-02,3.23092578e-07,8.55753485e-01,6.86964101e-02,2.49504390e-06,1.41393679e-03,3.35021397e-03,7.07830662e-02
5.05000000e-07,1.20689197e-06,8.26016296e-01,9.53114013e-02,2.47079870e-07,1.24870806e-06,1.28460541e-02,6.58235468e-02,3.22870447e-07,8.54891100e-01,6.95705563e-02,2.59943207e-06,1.45254959e-03,3.39394096e-03,7.06888609e-02
5.50000000e-07,1.22174770e-06,8.27753530e-01,9.41420719e-02,2.46130398e-07,1.24124069e-06,1.28210671e-02,6.52806225e-02,3.22343781e-07,8.53835609e-01,7.05932140e-02,2.71936149e-06,1.49623623e-03,3.44247465e-03,7.06293541e-02
5.95000000e-07,1.23094060e-06,8.28770302e-01,9.34722839e-02,2.46511775e-07,1.23793121e-06,1.28116590e-02,6.49430398e-02,3.21614479e-07,8.52668496e-01,7.16965653e-02,2.84907137e-06,1.54272393e-03,3.49315663e-03,7.05958174e-02
6.40000000e-07,1.23657055e-06,8.29330593e-01,9.31195929e-02,2.47724571e-07,1.23735321e-06,1.28132257e-02,6.47338667e-02,3.20755885e-07,8.51445299e-01,7.28350888e-02,2.98449339e-06,1.59046437e-03,3.54425133e-03,7.05815219e-02
6.85000000e-07,1.23946359e-06,8.29601599e-01,9.29672067e-02,2.49467994e-07,1.23864038e-06,1.28217060e-02,6.46067612e-02,3.19820231e-07,8.50203067e-01,7.39790365e-02,3.12278474e-06,1.63842876e-03,3.59467474e-03,7.05812805e-02
7.30000000e-07,1.24152591e-06,8.29688460e-01,9.29420409e-02,2.51581204e-07,1.24089100e-06,1.28340755e-02,6.45326895e-02,3.18844148e-07,8.48966088e-01,7.51093786e-02,3.26196112e-06,1.68594408e-03,3.64377545e-03,7.05911629e-02
7.75000000e-07,1.24195337e-06,8.29663293e-01,9.29954717e-02,2.53773205e-07,1.24395877e-06,1.28507817e-02,6.44877147e-02,3.17853169e-07,8.47749942e-01,7.62143039e-02,3.40066118e-06,1.73258427e-03,3.69118872e-03,7.06081924e-02
8.20000000e-07,1.24182618e-06,8.29565474e-01,9.30972549e-02,2.56159691e-07,1.24742389e-06,1.28663753e-02,6.44681506e-02,3.16864551e-07,8.46564104e-01,7.72869772e-02,3.53796951e-06,1.77809383e-03,3.73673896e-03,7.06301612e-02
8.65000000e-07,1.24165927e-06,8.29427735e-01,9.32271321e-02,2.58566951e-07,1.25108353e-06,1.28844351e-02,6.44579469e-02,3.15889575e-07,8.45413941e-01,7.83238369e-02,3.67327974e-06,1.82232982e-03,3.78036756e-03,7.06554659e-02
9.10000000e-07,1.24120634e-06,8.29262214e-01,9.33749312e-02,2.60994689e-07,1.25483344e-06,1.29017475e-02,6.44583507e-02,3.14935445e-07,8.44302149e-01,7.93233993e-02,3.80620817e-06,1.86522488e-03,3.82208803e-03,7.06829481e-02
9.55000000e-07,1.24059523e-06,8.29084709e-01,9.35305702e-02,2.63374116e-07,1.25856520e-06,1.29204135e-02,6.44615454e-02,3.14006402e-07,8.43229619e-01,8.02855560e-02,3.93651818e-06,1.90675891e-03,3.86195534e-03,7.07117901e-02
1.00000000e-06,1.23995158e-06,8.28897236e-01,9.36926224e-02,2.65761422e-07,1.26233058e-06,1.29382734e-02,6.44691005e-02,3.13104939e-07,8.42196149e-01,8.12110321e-02,4.06408481e-06,1.94694603e-03,3.90005113e-03,7.07413748e-02
1.45000000e-06,1.23222555e-06,8.27088646e-01,9.52277271e-02,2.87189123e-07,1.29664910e-06,1.30985748e-02,6.45822364e-02,3.05557759e-07,8.33700188e-01,8.87756801e-02,5.19086563e-06,2.28427299e-03,4.20308044e-03,7.10312117e-02
1.90000000e-06,1.22582076e-06,8.25622890e-01,9.64662966e-02,3.04479943e-07,1.32410661e-06,1.32247392e-02,6.46832205e-02,3.00021057e-07,8.27584919e-01,9.41809920e-02,6.08727735e-06,2.53400809e-03,4.41063599e-03,7.12829878e-02
2.35000000e-06,1.22070264e-06,8.24456504e-01,9.74510262e-02,3.18359623e-07,1.34594155e-06,1.33238651e-02,6.47657199e-02,2.95801004e-07,8.22988080e-01,9.82220828e-02,6.80478069e-06,2.72433970e-03,4.56057970e-03,7.14977470e-02
2.80000000e-06,1.21661787e-06,8.23528173e-01,9.82343042e-02,3.29485121e-07,1.36331323e-06,1.34019849e-02,6.48326285e-02,2.92521394e-07,8.19451963e-01,1.01317833e-01,7.38023357e-06,2.87173865e-03,4.67228568e-03,7.16784367e-02
3.25000000e-06,1.21335851e-06,8.22788947e-01,9.88577377e-02,3.38393505e-07,1.37714083e-06,1.34637039e-02,6.48866832e-02,2.89948456e-07,8.16699773e-01,1.03719457e-01,7.84161626e-06,2.98685590e-03,4.75699824e-03,7.18287142e-02
3.70000000e-06,1.21075822e-06,8.22200104e-01,9.93541669e-02,3.45520545e-07,1.38815149e-06,1.35125597e-02,6.49302250e-02,2.87913575e-07,8.14537482e-01,1.05601254e-01,8.21142496e-06,3.07732348e-03,4.82210896e-03,7.19532620e-02
4.15000000e-06,1.20868326e-06,8.21730775e-01,9.97497296e-02,3.51220503e-07,1.39692460e-06,1.35513052e-02,6.49652334e-02,2.86302557e-07,8.12832162e-01,1.07082643e-01,8.50781884e-06,3.14873099e-03,4.87262590e-03,7.20549738e-02
4.60000000e-06,1.20702717e-06,8.21356528e-01,1.00065087e-01,3.55778004e-07,1.40391845e-06,1.35820780e-02,6.49933411e-02,2.85023431e-07,8.11482248e-01,1.08253575e-01,8.74516151e-06,3.20524480e-03,4.91207902e-03,7.21377526e-02
5.05000000e-06,1.20570805e-06,8.21058639e-01,1.00316058e-01,3.59413427e-07,1.40948406e-06,1.36064941e-02,6.50158346e-02,2.84008338e-07,8.10413525e-01,1.09179519e-01,8.93474581e-06,3.24997244e-03,4.94297705e-03,7.22047183e-02
5.50000000e-06,1.20465636e-06,8.20821268e-01,1.00516016e-01,3.62315172e-07,1.41391812e-06,1.36259007e-02,6.50338342e-02,2.83201064e-07,8.09565171e-01,1.09913859e-01,9.08625140e-06,3.28546093e-03,4.96729239e-03,7.22587775e-02
5.95000000e-06,1.20381776e-06,8.20632075e-01,1.00675373e-01,3.64631116e-07,1.41745168e-06,1.36413368e-02,6.50482292e-02,2.82558540e-07,8.08890968e-01,1.10497018e-01,9.20729796e-06,3.31365219e-03,4.98648002e-03,7.23023223e-02
6.40000000e-06,1.20314880e-06,8.20481201e-01,1.00802444e-01,3.66479922e-07,1.42026921e-06,1.36536273e-02,6.50597378e-02,2.82046770e-07,8.08354462e-01,1.10960830e-01,9.30399893e-06,3.33607656e-03,5.00166831e-03,7.23373073e-02
6.85000000e-06,1.20261507e-06,8.20360858e-01,1.00903794e-01,3.67955852e-07,1.42251636e-06,1.36634182e-02,6.50689366e-02,2.81638869e-07,8.07927202e-01,1.11330034e-01,9.38125071e-06,3.35392822e-03,5.01371087e-03,7.23653920e-02
7.30000000e-06,1.20218906e-06,8.20264821e-01,1.00984670e-01,3.69134507e-07,1.42430951e-06,1.36712235e-02,6.50762899e-02,2.81313465e-07,8.07586672e-01,1.11624172e-01,9.44298346e-06,3.36815222e-03,5.02327277e-03,7.23879372e-02
7.75000000e-06,1.20184907e-06,8.20188186e-01,1.01049205e-01,3.70075516e-07,1.42574032e-06,1.36774475e-02,6.50821641e-02,2.81053928e-07,8.07315199e-01,1.11858603e-01,9.49228467e-06,3.37949009e-03,5.03087722e-03,7.24059871e-02
8.20000000e-06,1.20157809e-06,8.20127109e-01,1.01100638e-01,3.70825753e-07,1.42688064e-06,1.36824059e-02,6.50868485e-02,2.80847319e-07,8.07098990e-01,1.12045310e-01,9.53158564e-06,3.38851846e-03,5.03692738e-03,7.24203720e-02
8.65000000e-06,1.20136221e-06,8.20078466e-01,1.01141597e-01,3.71423661e-07,1.42778875e-06,1.36863505e-02,6.50905865e-02,2.80682573e-07,8.06926999e-01,1.12193723e-01,9.56295295e-06,3.39569890e-03,5.04171556e-03,7.24319491e-02
9.10000000e-06,1.20119032e-06,8.20039729e-01,1.01174215e-01,3.71899927e-07,1.42851188e-06,1.36894912e-02,6.50935633e-02,2.80551766e-07,8.06789888e-01,1.12312125e-01,9.58791537e-06,3.40141642e-03,5.04553966e-03,7.24410931e-02
9.55000000e-06,1.20105336e-06,8.20008872e-01,1.01200197e-01,3.72279454e-07,1.42908796e-06,1.36919918e-02,6.50959366e-02,2.80447110e-07,8.06680930e-01,1.12406082e-01,9.60784342e-06,3.40596640e-03,5.04856064e-03,7.24485032e-02
1.00000000e-05,1.20094423e-06,8.19984284e-01,1.01220901e-01,3.72581947e-07,1.42954702e-06,1.36939842e-02,6.50978282e-02,2.80363930e-07,8.06594071e-01,1.12481023e-01,9.62371373e-06,3.40959165e-03,5.05097307e-03,7.24543671e-02
1.45000000e-05,1.20056061e-06,8.19897819e-01,1.01293712e-01,3.73646682e-07,1.43116169e-06,1.37009899e-02,6.51044749e-02,2.80071107e-07,8.06288308e-01,1.12744816e-01,9.67960930e-06,3.42234981e-03,5.05945655e-03,7.24750396e-02
1.90000000e-05,1.20052186e-06,8.19889041e-01,1.01301111e-01,3.73755853e-07,1.43132633e-06,1.37017043e-02,6.51051388e-02,2.80041159e-07,8.06257236e-01,1.12771575e-01,9.68538833e-06,3.42365066e-03,5.06030822e-03,7.24771950e-02
2.35000000e-05,1.20051876e-06,8.19888292e-01,1.01301750e-01,3.73766250e-07,1.43134115e-06,1.37017689e-02,6.51051834e-02,2.80038249e-07,8.06253735e-01,1.12774675e-01,9.68594127e-06,3.42379144e-03,5.06041542e-03,7.24773471e-02
2.80000000e-05,1.20051934e-06,8.19888371e-01,1.01301693e-01,3.73766457e-07,1.43134050e-06,1.37017664e-02,6.51051644e-02,2.80038478e-07,8.06253774e-01,1.12774680e-01,9.68596420e-06,3.42379687e-03,5.06041953e-03,7.24772945e-02
3.25000000e-05,1.20052030e-06,8.19888538e-01,1.01301562e-01,3.73765579e-07,1.43133821e-06,1.37017569e-02,6.51051385e-02,2.80038611e-07,8.06253880e-01,1.12774593e-01,9.68594936e-06,3.42379352e-03,5.06041739e-03,7.24772793e-02
3.70000000e-05,1.20052133e-06,8.19888719e-01,1.01301418e-01,3.73764533e-07,1.43133567e-06,1.37017462e-02,6.51051116e-02,2.80038858e-07,8.06254078e-01,1.12774434e-01,9.68592206e-06,3.42378737e-03,5.06041347e-03,7.24772511e-02
4.15000000e-05,1.20052235e-06,8.19888899e-01,1.01301276e-01,3.73763494e-07,1.43133314e-06,1.37017356e-02,6.51050847e-02,2.80039106e-07,8.06254275e-01,1.12774276e-01,9.68589495e-06,3.42378126e-03,5.06040957e-03,7.24772226e-02
4.60000000e-05,1.20052337e-06,8.19889078e-01,1.01301134e-01,3.73762464e-07,1.43133062e-06,1.37017250e-02,6.51050579e-02,2.80039351e-07,8.06254470e-01,1.12774119e-01,9.68586832e-06,3.42377526e-03,5.06040575e-03,7.24771942e-02
5.05000000e-05,1.20052439e-06,8.19889257e-01,1.01300992e-01,3.73761439e-07,1.43132810e-06,1.37017145e-02,6.51050311e-02,2.80039594e-07,8.06254664e-01,1.12773964e-01,9.68584194e-06,3.42376932e-03,5.06040196e-03,7.24771659e-02
5.50000000e-05,1.20052541e-06,8.19889436e-01,1.01300850e-01,3.73760414e-07,1.43132559e-06,1.37017040e-02,6.51050043e-02,2.80039838e-07,8.06254857e-01,1.12773808e-01,9.68581556e-06,3.42376338e-03,5.06039818e-03,7.24771377e-02
5.95000000e-05,1.20052643e-06,8.19889615e-01,1.01300709e-01,3.73759389e-07,1.43132308e-06,1.37016934e-02,6.51049775e-02,2.80040082e-07,8.06255050e-01,1.12773653e-01,9.68578918e-06,3.42375743e-03,5.06039440e-03,7.24771094e-02
6.40000000e-05,1.20052745e-06,8.19889794e-01,1.01300567e-01,3.73758363e-07,1.43132057e-06,1.37016829e-02,6.51049507e-02,2.80040326e-07,8.06255244e-01,1.12773497e-01,9.68576281e-06,3.42375149e-03,5.06039061e-03,7.24770811e-02
6.85000000e-05,1.20052847e-06,8.19889973e-01,1.01300426e-01,3.73757338e-07,1.43131806e-06,1.37016724e-02,6.51049240e-02,2.80040570e-07,8.06255437e-01,1.12773342e-01,9.68573643e-06,3.42374555e-03,5.06038683e-03,7.24770528e-02
7.30000000e-05,1.20052949e-06,8.19890152e-01,1.01300284e-01,3.73756313e-07,1.43131554e-06,1.37016618e-02,6.51048972e-02,2.80040814e-07,8.06255631e-01,1.12773186e-01,9.68571005e-06,3.42373961e-03,5.06038304e-03,7.24770246e-02
7.75000000e-05,1.20053051e-06,8.19890331e-01,1.01300142e-01,3.73755288e-07,1.43131303e-06,1.37016513e-02,6.51048704e-02,2.80041058e-07,8.06255824e-01,1.12773031e-01,9.68568368e-06,3.42373367e-03,5.06037926e-03,7.24769963e-02
8.20000000e-05,1.20053153e-06,8.19890510e-01,1.01300001e-01,3.73754263e-07,1.43131052e-06,1.37016408e-02,6.51048436e-02,2.80041301e-07,8.06256017e-01,1.12772876e-01,9.68565732e-06,3.42372773e-03,5.06037547e-03,7.24769680e-02
8.65000000e-05,1.20053254e-06,8.19890689e-01,1.01299859e-01,3.73753239e-07,1.43130801e-06,1.37016303e-02,6.51048168e-02,2.80041545e-07,8.06256211e-01,1.12772721e-01,9.68563099e-06,3.42372180e-03,5.06037170e-03,7.24769398e-02
9.10000000e-05,1.20053356e-06,8.19890868e-01,1.01299717e-01,3.73752215e-07,1.43130550e-06,1.37016197e-02,6.51047900e-02,2.80041789e-07,8.06256404e-01,1.12772565e-01,9.68560465e-06,3.42371587e-03,5.06036792e-03,7.24769115e-02
9.55000000e-05,1.20053458e-06,8.19891046e-01,1.01299576e-01,3.73751191e-07,1.43130299e-06,1.37016092e-02,6.51047633e-02,2.80042032e-07,8.06256597e-01,1.12772410e-01,9.68557832e-06,3.42370994e-03,5.06036414e-03,7.24768833e-02
1.00000000e-04,1.20053560e-06,8.19891225e-01,1.01299434e-01,3.73750167e-07,1.43130048e-06,1.37015987e-02,6.51047365e-02,2.80042276e-07,8.06256790e-01,1.12772255e-01,9.68555199e-06,3.42370400e-03,5.06036036e-03,7.24768550e-02
1.45000000e-04,1.20054579e-06,8.19893014e-01,1.01298019e-01,3.73739926e-07,1.43127538e-06,1.37014935e-02,6.51044687e-02,2.80044712e-07,8.06258722e-01,1.12770703e-01,9.68528868e-06,3.42364469e-03,5.06032258e-03,7.24765725e-02
1.90000000e-04,1.20055597e-06,8.19894803e-01,1.01296603e-01,3.73729685e-07,1.43125027e-06,1.37013882e-02,6.51042009e-02,2.80047148e-07,8.06260654e-01,1.12769151e-01,9.68502536e-06,3.42358537e-03,5.06028480e-03,7.24762899e-02
2.35000000e-04,1.20056615e-06,8.19896592e-01,1.01295187e-01,3.73719444e-07,1.43122517e-06,1.37012830e-02,6.51039332e-02,2.80049583e-07,8.06262585e-01,1.12767599e-01,9.68476205e-06,3.42352606e-03,5.06024702e-03,7.24760074e-02
2.80000000e-04,1.20057632e-06,8.19898377e-01,1.01293774e-01,3.73709223e-07,1.43120011e-06,1.37011779e-02,6.51036659e-02,2.80052015e-07,8.06264514e-01,1.12766050e-01,9.68449923e-06,3.42346685e-03,5.06020930e-03,7.24757254e-02
3.25000000e-04,1.20058649e-06,8.19900162e-01,1.01292361e-01,3.73699001e-07,1.43117505e-06,1.37010729e-02,6.51033987e-02,2.80054447e-07,8.06266442e-01,1.12764501e-01,9.68423642e-06,3.42340763e-03,5.06017158e-03,7.24754435e-02
3.70000000e-04,1.20059666e-06,8.19901948e-01,1.01290948e-01,3.73688779e-07,1.43114999e-06,1.37009678e-02,6.51031315e-02,2.80056878e-07,8.06268370e-01,1.12762952e-01,9.68397360e-06,3.42334842e-03,5.06013385e-03,7.24751615e-02
4.15000000e-04,1.20060682e-06,8.19903733e-01,1.01289535e-01,3.73678558e-07,1.43112493e-06,1.37008627e-02,6.51028642e-02,2.80059310e-07,8.06270298e-01,1.12761403e-01,9.68371078e-06,3.42328921e-03,5.06009613e-03,7.24748795e-02
