z(m),CH2CH2,CH3CH3,CH4,CHCH,H2,N2
1.000000e-06,1.638259e-05,7.473506e-02,2.505272e-09,6.623341e-07,1.279682e-06,9.252466e-01
1.450000e-06,2.206767e-05,7.472868e-02,3.704866e-09,9.111043e-07,1.726666e-06,9.252466e-01
1.900000e-06,2.724059e-05,7.472286e-02,4.964923e-09,1.146262e-06,2.134734e-06,9.252466e-01
2.350000e-06,3.203469e-05,7.471746e-02,6.286625e-09,1.371752e-06,2.514080e-06,9.252466e-01
2.800000e-06,3.653193e-05,7.471239e-02,7.669636e-09,1.589914e-06,2.870953e-06,9.252466e-01
3.250000e-06,4.078740e-05,7.470758e-02,9.113035e-09,1.802273e-06,3.209550e-06,9.252466e-01
3.700000e-06,4.484052e-05,7.470300e-02,1.061568e-08,2.009894e-06,3.532870e-06,9.252466e-01
4.150000e-06,4.872079e-05,7.469860e-02,1.217639e-08,2.213555e-06,3.843150e-06,9.252466e-01
4.600000e-06,5.245100e-05,7.469437e-02,1.379397e-08,2.413844e-06,4.142121e-06,9.252466e-01
5.050000e-06,5.604929e-05,7.469028e-02,1.546731e-08,2.611224e-06,4.431159e-06,9.252466e-01
5.500000e-06,5.953039e-05,7.468633e-02,1.719534e-08,2.806062e-06,4.711378e-06,9.252466e-01
5.950000e-06,6.290647e-05,7.468248e-02,1.897707e-08,2.998661e-06,4.983700e-06,9.252466e-01
6.400000e-06,6.618774e-05,7.467874e-02,2.081158e-08,3.189271e-06,5.248897e-06,9.252466e-01
6.850000e-06,6.938287e-05,7.467510e-02,2.269802e-08,3.378101e-06,5.507625e-06,9.252466e-01
7.300000e-06,7.249929e-05,7.467154e-02,2.463559e-08,3.565331e-06,5.760447e-06,9.252466e-01
7.750000e-06,7.554347e-05,7.466806e-02,2.662357e-08,3.751116e-06,6.007850e-06,9.252466e-01
8.200000e-06,7.852105e-05,7.466466e-02,2.866128e-08,3.935589e-06,6.250261e-06,9.252466e-01
8.650000e-06,8.143698e-05,7.466132e-02,3.074809e-08,4.118870e-06,6.488054e-06,9.252466e-01
9.100000e-06,8.429569e-05,7.465804e-02,3.288343e-08,4.301062e-06,6.721563e-06,9.252466e-01
9.550000e-06,8.710107e-05,7.465482e-02,3.506675e-08,4.482258e-06,6.951083e-06,9.252466e-01
1.000000e-05,8.985667e-05,7.465166e-02,3.729755e-08,4.662540e-06,7.176881e-06,9.252466e-01
1.450000e-05,1.152469e-04,7.462238e-02,6.213148e-08,6.428680e-06,9.273387e-06,9.252466e-01
1.900000e-05,1.378818e-04,7.459610e-02,9.137522e-08,8.156412e-06,1.116566e-05,9.252466e-01
2.350000e-05,1.587607e-04,7.457171e-02,1.248917e-07,9.870463e-06,1.292937e-05,9.252466e-01
2.800000e-05,1.784412e-04,7.454859e-02,1.626459e-07,1.158557e-05,1.460685e-05,9.252466e-01
3.250000e-05,1.972711e-04,7.452638e-02,2.046658e-07,1.331170e-05,1.622465e-05,9.252466e-01
3.700000e-05,2.154846e-04,7.450480e-02,2.510222e-07,1.505618e-05,1.780071e-05,9.252466e-01
4.150000e-05,2.332473e-04,7.448367e-02,3.018167e-07,1.682469e-05,1.934783e-05,9.252466e-01
4.600000e-05,2.506818e-04,7.446285e-02,3.571745e-07,1.862186e-05,2.087551e-05,9.252466e-01
5.050000e-05,2.678813e-04,7.444225e-02,4.172398e-07,2.045160e-05,2.239106e-05,9.252466e-01
5.500000e-05,2.849188e-04,7.442177e-02,4.821726e-07,2.231723e-05,2.390021e-05,9.252466e-01
5.950000e-05,3.018521e-04,7.440136e-02,5.521463e-07,2.422172e-05,2.540758e-05,9.252466e-01
6.400000e-05,3.187285e-04,7.438095e-02,6.273464e-07,2.616771e-05,2.691695e-05,9.252466e-01
6.850000e-05,3.355866e-04,7.436051e-02,7.079690e-07,2.815757e-05,2.843146e-05,9.252466e-01
7.300000e-05,3.524587e-04,7.433999e-02,7.942204e-07,3.019350e-05,2.995376e-05,9.252466e-01
7.750000e-05,3.693718e-04,7.431937e-02,8.863153e-07,3.227752e-05,3.148609e-05,9.252466e-01
8.200000e-05,3.863488e-04,7.429862e-02,9.844767e-07,3.441148e-05,3.303035e-05,9.252466e-01
8.650000e-05,4.034092e-04,7.427771e-02,1.088936e-06,3.659715e-05,3.458822e-05,9.252466e-01
9.100000e-05,4.205697e-04,7.425662e-02,1.199934e-06,3.883616e-05,3.616114e-05,9.252466e-01
9.550000e-05,4.378447e-04,7.423535e-02,1.317714e-06,4.113004e-05,3.775036e-05,9.252466e-01
1.000000e-04,4.552466e-04,7.421386e-02,1.442532e-06,4.348024e-05,3.935697e-05,9.252466e-01
1.450000e-04,6.379923e-04,7.398538e-02,3.137720e-06,7.034226e-05,5.654242e-05,9.252466e-01
1.900000e-04,8.389436e-04,7.372871e-02,5.854674e-06,1.038812e-04,7.600589e-05,9.252466e-01
2.350000e-04,1.057636e-03,7.344372e-02,9.911932e-06,1.443815e-04,9.773796e-05,9.252466e-01
2.800000e-04,1.290711e-03,7.313423e-02,1.562060e-05,1.914183e-04,1.214121e-04,9.252466e-01
3.250000e-04,1.533162e-03,7.280668e-02,2.323683e-05,2.438393e-04,1.464738e-04,9.252466e-01
3.700000e-04,1.779111e-03,7.246935e-02,3.291184e-05,2.998083e-04,1.722070e-04,9.252466e-01
4.150000e-04,2.022441e-03,7.213157e-02,4.464826e-05,3.569271e-04,1.978005e-04,9.252466e-01
4.600000e-04,2.257329e-03,7.180295e-02,5.827251e-05,4.124260e-04,2.224179e-04,9.252466e-01
5.050000e-04,2.478684e-03,7.149261e-02,7.342884e-05,4.634038e-04,2.452665e-04,9.252466e-01
5.500000e-04,2.682482e-03,7.120856e-02,8.960108e-05,5.070911e-04,2.656606e-04,9.252466e-01
5.950000e-04,2.865975e-03,7.095708e-02,1.061573e-04,5.411069e-04,2.830738e-04,9.252466e-01
6.400000e-04,3.027782e-03,7.074234e-02,1.224134e-04,5.636831e-04,2.971760e-04,9.252466e-01
6.850000e-04,3.167846e-03,7.056615e-02,1.377058e-04,5.738387e-04,3.078529e-04,9.252466e-01
7.300000e-04,3.287267e-03,7.042796e-02,1.514614e-04,5.714903e-04,3.152068e-04,9.252466e-01
7.750000e-04,3.388020e-03,7.032508e-02,1.632550e-04,5.574971e-04,3.195391e-04,9.252466e-01
8.200000e-04,3.472557e-03,7.025303e-02,1.728468e-04,5.336411e-04,3.213173e-04,9.252466e-01
8.650000e-04,3.543360e-03,7.020616e-02,1.801949e-04,5.025446e-04,3.211283e-04,9.252466e-01
9.100000e-04,3.602474e-03,7.017833e-02,1.854424e-04,4.675169e-04,3.196226e-04,9.252466e-01
9.550000e-04,3.651154e-03,7.016361e-02,1.888829e-04,4.322974e-04,3.174509e-04,9.252466e-01
1.000000e-03,3.689775e-03,7.015688e-02,1.909082e-04,4.006318e-04,3.151955e-04,9.252466e-01
1.000000e-03,3.689775e-03,7.015688e-02,1.909082e-04,4.006318e-04,3.151955e-04,9.252466e-01
