z(m),CH2CH2,CH3CH3,CH4,CHCH,H2,N2
0.000000e+00,0.000000e+00,7.475339e-02,0.000000e+00,0.000000e+00,0.000000e+00,9.252466e-01
1.000000e-06,1.635491e-05,7.473509e-02,2.499442e-09,6.609969e-07,1.277486e-06,9.252466e-01
1.450000e-06,2.201267e-05,7.472874e-02,3.692032e-09,9.083940e-07,1.722295e-06,9.252466e-01
1.900000e-06,2.715069e-05,7.472297e-02,4.941952e-09,1.141744e-06,2.127576e-06,9.252466e-01
2.350000e-06,3.190301e-05,7.471761e-02,6.250113e-09,1.365009e-06,2.503575e-06,9.252466e-01
2.800000e-06,3.635214e-05,7.471259e-02,7.615928e-09,1.580541e-06,2.856585e-06,9.252466e-01
3.250000e-06,4.055361e-05,7.470785e-02,9.038235e-09,1.789877e-06,3.190835e-06,9.252466e-01
3.700000e-06,4.454722e-05,7.470333e-02,1.051567e-08,1.994088e-06,3.509351e-06,9.252466e-01
4.150000e-06,4.836276e-05,7.469901e-02,1.204681e-08,2.193959e-06,3.814395e-06,9.252466e-01
4.600000e-06,5.202333e-05,7.469486e-02,1.363029e-08,2.390087e-06,4.107720e-06,9.252466e-01
5.050000e-06,5.554728e-05,7.469085e-02,1.526476e-08,2.582937e-06,4.390716e-06,9.252466e-01
5.500000e-06,5.894956e-05,7.468699e-02,1.694899e-08,2.772884e-06,4.664516e-06,9.252466e-01
5.950000e-06,6.224251e-05,7.468324e-02,1.868178e-08,2.960234e-06,4.930055e-06,9.252466e-01
6.400000e-06,6.543652e-05,7.467960e-02,2.046204e-08,3.145238e-06,5.188117e-06,9.252466e-01
6.850000e-06,6.854039e-05,7.467606e-02,2.228874e-08,3.328113e-06,5.439369e-06,9.252466e-01
7.300000e-06,7.156173e-05,7.467261e-02,2.416091e-08,3.509040e-06,5.684386e-06,9.252466e-01
7.750000e-06,7.450710e-05,7.466925e-02,2.607767e-08,3.688178e-06,5.923663e-06,9.252466e-01
8.200000e-06,7.738227e-05,7.466596e-02,2.803816e-08,3.865663e-06,6.157637e-06,9.252466e-01
8.650000e-06,8.019229e-05,7.466274e-02,3.004161e-08,4.041615e-06,6.386690e-06,9.252466e-01
9.100000e-06,8.294169e-05,7.465959e-02,3.208728e-08,4.216142e-06,6.611163e-06,9.252466e-01
9.550000e-06,8.563446e-05,7.465650e-02,3.417448e-08,4.389339e-06,6.831358e-06,9.252466e-01
1.000000e-05,8.827422e-05,7.465347e-02,3.630257e-08,4.561290e-06,7.047547e-06,9.252466e-01
1.450000e-05,1.123442e-04,7.462573e-02,5.971511e-08,6.226253e-06,9.033597e-06,9.252466e-01
1.900000e-05,1.334003e-04,7.460129e-02,8.672906e-08,7.821299e-06,1.079202e-05,9.252466e-01
2.350000e-05,1.524780e-04,7.457902e-02,1.170860e-07,9.372152e-06,1.240121e-05,9.252466e-01
2.800000e-05,1.701586e-04,7.455828e-02,1.506372e-07,1.089421e-05,1.390535e-05,9.252466e-01
3.250000e-05,1.868071e-04,7.453867e-02,1.873013e-07,1.239789e-05,1.533227e-05,9.252466e-01
3.700000e-05,2.026704e-04,7.451990e-02,2.270418e-07,1.389079e-05,1.670091e-05,9.252466e-01
4.150000e-05,2.179245e-04,7.450179e-02,2.698538e-07,1.537881e-05,1.802482e-05,9.252466e-01
4.600000e-05,2.326998e-04,7.448419e-02,3.157560e-07,1.686666e-05,1.931411e-05,9.252466e-01
5.050000e-05,2.470964e-04,7.446699e-02,3.647851e-07,1.835828e-05,2.057657e-05,9.252466e-01
5.500000e-05,2.611927e-04,7.445011e-02,4.169921e-07,1.985698e-05,2.181834e-05,9.252466e-01
5.950000e-05,2.750515e-04,7.443346e-02,4.724399e-07,2.136567e-05,2.304439e-05,9.252466e-01
6.400000e-05,2.887241e-04,7.441699e-02,5.312011e-07,2.288688e-05,2.425879e-05,9.252466e-01
6.850000e-05,3.022527e-04,7.440066e-02,5.933570e-07,2.442286e-05,2.546492e-05,9.252466e-01
7.300000e-05,3.156727e-04,7.438442e-02,6.589956e-07,2.597564e-05,2.666562e-05,9.252466e-01
7.750000e-05,3.290140e-04,7.436824e-02,7.282116e-07,2.754706e-05,2.786334e-05,9.252466e-01
8.200000e-05,3.423021e-04,7.435209e-02,8.011050e-07,2.913878e-05,2.906014e-05,9.252466e-01
8.650000e-05,3.555587e-04,7.433594e-02,8.777810e-07,3.075235e-05,3.025782e-05,9.252466e-01
9.100000e-05,3.688027e-04,7.431978e-02,9.583489e-07,3.238916e-05,3.145795e-05,9.252466e-01
9.550000e-05,3.820502e-04,7.430359e-02,1.042922e-06,3.405050e-05,3.266188e-05,9.252466e-01
1.000000e-04,3.953154e-04,7.428734e-02,1.131618e-06,3.573756e-05,3.387080e-05,9.252466e-01
1.450000e-04,5.309803e-04,7.411950e-02,2.272905e-06,5.422256e-05,4.641058e-05,9.252466e-01
1.900000e-04,6.752051e-04,7.393816e-02,3.970106e-06,7.601738e-05,6.004308e-05,9.252466e-01
2.350000e-04,8.288735e-04,7.374203e-02,6.360477e-06,1.012768e-04,7.484715e-05,9.252466e-01
2.800000e-04,9.913577e-04,7.353177e-02,9.583114e-06,1.299193e-04,9.075632e-05,9.252466e-01
3.250000e-04,1.162129e-03,7.330792e-02,1.378367e-05,1.618531e-04,1.077092e-04,9.252466e-01
3.700000e-04,1.340271e-03,7.307156e-02,1.910464e-05,1.968579e-04,1.255969e-04,9.252466e-01
4.150000e-04,1.523238e-03,7.282619e-02,2.564411e-05,2.342004e-04,1.441169e-04,9.252466e-01
4.600000e-04,1.707352e-03,7.257716e-02,3.342438e-05,2.726425e-04,1.628115e-04,9.252466e-01
5.050000e-04,1.890123e-03,7.232838e-02,4.242796e-05,3.111250e-04,1.813390e-04,9.252466e-01
5.500000e-04,2.071420e-03,7.208035e-02,5.266519e-05,3.493195e-04,1.996385e-04,9.252466e-01
5.950000e-04,2.252099e-03,7.183201e-02,6.417994e-05,3.873195e-04,2.177832e-04,9.252466e-01
6.400000e-04,2.432089e-03,7.158366e-02,7.698486e-05,4.249189e-04,2.357353e-04,9.252466e-01
6.850000e-04,2.610139e-03,7.133752e-02,9.101728e-05,4.614107e-04,2.532993e-04,9.252466e-01
7.300000e-04,2.785006e-03,7.109588e-02,1.061722e-04,4.960537e-04,2.702778e-04,9.252466e-01
7.750000e-04,2.956186e-03,7.085982e-02,1.223532e-04,5.284512e-04,2.865791e-04,9.252466e-01
8.200000e-04,3.123604e-03,7.062969e-02,1.394761e-04,5.584453e-04,3.021787e-04,9.252466e-01
8.650000e-04,3.287250e-03,7.040567e-02,1.574558e-04,5.859438e-04,3.170670e-04,9.252466e-01
9.100000e-04,3.447438e-03,7.018733e-02,1.762358e-04,6.110943e-04,3.312930e-04,9.252466e-01
9.550000e-04,3.605465e-03,6.997220e-02,1.958765e-04,6.347709e-04,3.450813e-04,9.252466e-01
1.000000e-03,3.764347e-03,6.975420e-02,2.166862e-04,6.591877e-04,3.589723e-04,9.252466e-01
1.000000e-03,3.764347e-03,6.975420e-02,2.166862e-04,6.591877e-04,3.589723e-04,9.252466e-01
